3998.01221
3996.0836
3994.15498
3992.22637
3990.29776
3988.36915
3986.44054
3984.51193
3982.58331
3980.6547
3978.72609
3976.79748
3974.86887
3972.94025
3971.01164
3969.08303
3967.15442
3965.22581
3963.2972
3961.36858
3959.43997
3957.51136
3955.58275
3953.65414
3951.72553
3949.79691
3947.8683
3945.93969
3944.01108
3942.08247
3940.15385
3938.22524
3936.29663
3934.36802
3932.43941
3930.5108
3928.58218
3926.65357
3924.72496
3922.79635
3920.86774
3918.93913
3917.01051
3915.0819
3913.15329
3911.22468
3909.29607
3907.36745
3905.43884
3903.51023
3901.58162
3899.65301
3897.7244
3895.79578
3893.86717
3891.93856
3890.00995
3888.08134
3886.15272
3884.22411
3882.2955
3880.36689
3878.43828
3876.50967
3874.58105
3872.65244
3870.72383
3868.79522
3866.86661
3864.938
3863.00938
3861.08077
3859.15216
3857.22355
3855.29494
3853.36632
3851.43771
3849.5091
3847.58049
3845.65188
3843.72327
3841.79465
3839.86604
3837.93743
3836.00882
3834.08021
3832.1516
3830.22298
3828.29437
3826.36576
3824.43715
3822.50854
3820.57992
3818.65131
3816.7227
3814.79409
3812.86548
3810.93687
3809.00825
3807.07964
3805.15103
3803.22242
3801.29381
3799.3652
3797.43658
3795.50797
3793.57936
3791.65075
3789.72214
3787.79352
3785.86491
3783.9363
3782.00769
3780.07908
3778.15047
3776.22185
3774.29324
3772.36463
3770.43602
3768.50741
3766.57879
3764.65018
3762.72157
3760.79296
3758.86435
3756.93574
3755.00712
3753.07851
3751.1499
3749.22129
3747.29268
3745.36407
3743.43545
3741.50684
3739.57823
3737.64962
3735.72101
3733.79239
3731.86378
3729.93517
3728.00656
3726.07795
3724.14934
3722.22072
3720.29211
3718.3635
3716.43489
3714.50628
3712.57767
3710.64905
3708.72044
3706.79183
3704.86322
3702.93461
3701.00599
3699.07738
3697.14877
3695.22016
3693.29155
3691.36294
3689.43432
3687.50571
3685.5771
3683.64849
3681.71988
3679.79127
3677.86265
3675.93404
3674.00543
3672.07682
3670.14821
3668.21959
3666.29098
3664.36237
3662.43376
3660.50515
3658.57654
3656.64792
3654.71931
3652.7907
3650.86209
3648.93348
3647.00486
3645.07625
3643.14764
3641.21903
3639.29042
3637.36181
3635.43319
3633.50458
3631.57597
3629.64736
3627.71875
3625.79014
3623.86152
3621.93291
3620.0043
3618.07569
3616.14708
3614.21846
3612.28985
3610.36124
3608.43263
3606.50402
3604.57541
3602.64679
3600.71818
3598.78957
3596.86096
3594.93235
3593.00374
3591.07512
3589.14651
3587.2179
3585.28929
3583.36068
3581.43206
3579.50345
3577.57484
3575.64623
3573.71762
3571.78901
3569.86039
3567.93178
3566.00317
3564.07456
3562.14595
3560.21734
3558.28872
3556.36011
3554.4315
3552.50289
3550.57428
3548.64566
3546.71705
3544.78844
3542.85983
3540.93122
3539.00261
3537.07399
3535.14538
3533.21677
3531.28816
3529.35955
3527.43093
3525.50232
3523.57371
3521.6451
3519.71649
3517.78788
3515.85926
3513.93065
3512.00204
3510.07343
3508.14482
3506.21621
3504.28759
3502.35898
3500.43037
3498.50176
3496.57315
3494.64453
3492.71592
3490.78731
3488.8587
3486.93009
3485.00148
3483.07286
3481.14425
3479.21564
3477.28703
3475.35842
3473.42981
3471.50119
3469.57258
3467.64397
3465.71536
3463.78675
3461.85813
3459.92952
3458.00091
3456.0723
3454.14369
3452.21508
3450.28646
3448.35785
3446.42924
3444.50063
3442.57202
3440.64341
3438.71479
3436.78618
3434.85757
3432.92896
3431.00035
3429.07173
3427.14312
3425.21451
3423.2859
3421.35729
3419.42868
3417.50006
3415.57145
3413.64284
3411.71423
3409.78562
3407.857
3405.92839
3403.99978
3402.07117
3400.14256
3398.21395
3396.28533
3394.35672
3392.42811
3390.4995
3388.57089
3386.64228
3384.71366
3382.78505
3380.85644
3378.92783
3376.99922
3375.0706
3373.14199
3371.21338
3369.28477
3367.35616
3365.42755
3363.49893
3361.57032
3359.64171
3357.7131
3355.78449
3353.85588
3351.92726
3349.99865
3348.07004
3346.14143
3344.21282
3342.2842
3340.35559
3338.42698
3336.49837
3334.56976
3332.64115
3330.71253
3328.78392
3326.85531
3324.9267
3322.99809
3321.06948
3319.14086
3317.21225
3315.28364
3313.35503
3311.42642
3309.4978
3307.56919
3305.64058
3303.71197
3301.78336
3299.85475
3297.92613
3295.99752
3294.06891
3292.1403
3290.21169
3288.28307
3286.35446
3284.42585
3282.49724
3280.56863
3278.64002
3276.7114
3274.78279
3272.85418
3270.92557
3268.99696
3267.06835
3265.13973
3263.21112
3261.28251
3259.3539
3257.42529
3255.49667
3253.56806
3251.63945
3249.71084
3247.78223
3245.85362
3243.925
3241.99639
3240.06778
3238.13917
3236.21056
3234.28195
3232.35333
3230.42472
3228.49611
3226.5675
3224.63889
3222.71027
3220.78166
3218.85305
3216.92444
3214.99583
3213.06722
3211.1386
3209.20999
3207.28138
3205.35277
3203.42416
3201.49555
3199.56693
3197.63832
3195.70971
3193.7811
3191.85249
3189.92387
3187.99526
3186.06665
3184.13804
3182.20943
3180.28082
3178.3522
3176.42359
3174.49498
3172.56637
3170.63776
3168.70914
3166.78053
3164.85192
3162.92331
3160.9947
3159.06609
3157.13747
3155.20886
3153.28025
3151.35164
3149.42303
3147.49442
3145.5658
3143.63719
3141.70858
3139.77997
3137.85136
3135.92274
3133.99413
3132.06552
3130.13691
3128.2083
3126.27969
3124.35107
3122.42246
3120.49385
3118.56524
3116.63663
3114.70802
3112.7794
3110.85079
3108.92218
3106.99357
3105.06496
3103.13634
3101.20773
3099.27912
3097.35051
3095.4219
3093.49329
3091.56467
3089.63606
3087.70745
3085.77884
3083.85023
3081.92162
3079.993
3078.06439
3076.13578
3074.20717
3072.27856
3070.34994
3068.42133
3066.49272
3064.56411
3062.6355
3060.70689
3058.77827
3056.84966
3054.92105
3052.99244
3051.06383
3049.13521
3047.2066
3045.27799
3043.34938
3041.42077
3039.49216
3037.56354
3035.63493
3033.70632
3031.77771
3029.8491
3027.92049
3025.99187
3024.06326
3022.13465
3020.20604
3018.27743
3016.34881
3014.4202
3012.49159
3010.56298
3008.63437
3006.70576
3004.77714
3002.84853
3000.91992
2998.99131
2997.0627
2995.13409
2993.20547
2991.27686
2989.34825
2987.41964
2985.49103
2983.56241
2981.6338
2979.70519
2977.77658
2975.84797
2973.91936
2971.99074
2970.06213
2968.13352
2966.20491
2964.2763
2962.34769
2960.41907
2958.49046
2956.56185
2954.63324
2952.70463
2950.77601
2948.8474
2946.91879
2944.99018
2943.06157
2941.13296
2939.20434
2937.27573
2935.34712
2933.41851
2931.4899
2929.56128
2927.63267
2925.70406
2923.77545
2921.84684
2919.91823
2917.98961
2916.061
2914.13239
2912.20378
2910.27517
2908.34656
2906.41794
2904.48933
2902.56072
2900.63211
2898.7035
2896.77488
2894.84627
2892.91766
2890.98905
2889.06044
2887.13183
2885.20321
2883.2746
2881.34599
2879.41738
2877.48877
2875.56016
2873.63154
2871.70293
2869.77432
2867.84571
2865.9171
2863.98848
2862.05987
2860.13126
2858.20265
2856.27404
2854.34543
2852.41681
2850.4882
2848.55959
2846.63098
2844.70237
2842.77376
2840.84514
2838.91653
2836.98792
2835.05931
2833.1307
2831.20208
2829.27347
2827.34486
2825.41625
2823.48764
2821.55903
2819.63041
2817.7018
2815.77319
2813.84458
2811.91597
2809.98735
2808.05874
2806.13013
2804.20152
2802.27291
2800.3443
2798.41568
2796.48707
2794.55846
2792.62985
2790.70124
2788.77263
2786.84401
2784.9154
2782.98679
2781.05818
2779.12957
2777.20095
2775.27234
2773.34373
2771.41512
2769.48651
2767.5579
2765.62928
2763.70067
2761.77206
2759.84345
2757.91484
2755.98623
2754.05761
2752.129
2750.20039
2748.27178
2746.34317
2744.41455
2742.48594
2740.55733
2738.62872
2736.70011
2734.7715
2732.84288
2730.91427
2728.98566
2727.05705
2725.12844
2723.19983
2721.27121
2719.3426
2717.41399
2715.48538
2713.55677
2711.62815
2709.69954
2707.77093
2705.84232
2703.91371
2701.9851
2700.05648
2698.12787
2696.19926
2694.27065
2692.34204
2690.41342
2688.48481
2686.5562
2684.62759
2682.69898
2680.77037
2678.84175
2676.91314
2674.98453
2673.05592
2671.12731
2669.1987
2667.27008
2665.34147
2663.41286
2661.48425
2659.55564
2657.62702
2655.69841
2653.7698
2651.84119
2649.91258
2647.98397
2646.05535
2644.12674
2642.19813
2640.26952
2638.34091
2636.4123
2634.48368
2632.55507
2630.62646
2628.69785
2626.76924
2624.84062
2622.91201
2620.9834
2619.05479
2617.12618
2615.19757
2613.26895
2611.34034
2609.41173
2607.48312
2605.55451
2603.6259
2601.69728
2599.76867
2597.84006
2595.91145
2593.98284
2592.05422
2590.12561
2588.197
2586.26839
2584.33978
2582.41117
2580.48255
2578.55394
2576.62533
2574.69672
2572.76811
2570.83949
2568.91088
2566.98227
2565.05366
2563.12505
2561.19644
2559.26782
2557.33921
2555.4106
2553.48199
2551.55338
2549.62477
2547.69615
2545.76754
2543.83893
2541.91032
2539.98171
2538.05309
2536.12448
2534.19587
2532.26726
2530.33865
2528.41004
2526.48142
2524.55281
2522.6242
2520.69559
2518.76698
2516.83837
2514.90975
2512.98114
2511.05253
2509.12392
2507.19531
2505.26669
2503.33808
2501.40947
2499.48086
2497.55225
2495.62364
2493.69502
2491.76641
2489.8378
2487.90919
2485.98058
2484.05197
2482.12335
2480.19474
2478.26613
2476.33752
2474.40891
2472.48029
2470.55168
2468.62307
2466.69446
2464.76585
2462.83724
2460.90862
2458.98001
2457.0514
2455.12279
2453.19418
2451.26556
2449.33695
2447.40834
2445.47973
2443.55112
2441.62251
2439.69389
2437.76528
2435.83667
2433.90806
2431.97945
2430.05084
2428.12222
2426.19361
2424.265
2422.33639
2420.40778
2418.47916
2416.55055
2414.62194
2412.69333
2410.76472
2408.83611
2406.90749
2404.97888
2403.05027
2401.12166
2399.19305
2397.26444
2395.33582
2393.40721
2391.4786
2389.54999
2387.62138
2385.69276
2383.76415
2381.83554
2379.90693
2377.97832
2376.04971
2374.12109
2372.19248
2370.26387
2368.33526
2366.40665
2364.47804
2362.54942
2360.62081
2358.6922
2356.76359
2354.83498
2352.90636
2350.97775
2349.04914
2347.12053
2345.19192
2343.26331
2341.33469
2339.40608
2337.47747
2335.54886
2333.62025
2331.69163
2329.76302
2327.83441
2325.9058
2323.97719
2322.04858
2320.11996
2318.19135
2316.26274
2314.33413
2312.40552
2310.47691
2308.54829
2306.61968
2304.69107
2302.76246
2300.83385
2298.90523
2296.97662
2295.04801
2293.1194
2291.19079
2289.26218
2287.33356
2285.40495
2283.47634
2281.54773
2279.61912
2277.69051
2275.76189
2273.83328
2271.90467
2269.97606
2268.04745
2266.11883
2264.19022
2262.26161
2260.333
2258.40439
2256.47578
2254.54716
2252.61855
2250.68994
2248.76133
2246.83272
2244.90411
2242.97549
2241.04688
2239.11827
2237.18966
2235.26105
2233.33243
2231.40382
2229.47521
2227.5466
2225.61799
2223.68938
2221.76076
2219.83215
2217.90354
2215.97493
2214.04632
2212.1177
2210.18909
2208.26048
2206.33187
2204.40326
2202.47465
2200.54603
2198.61742
2196.68881
2194.7602
2192.83159
2190.90298
2188.97436
2187.04575
2185.11714
2183.18853
2181.25992
2179.3313
2177.40269
2175.47408
2173.54547
2171.61686
2169.68825
2167.75963
2165.83102
2163.90241
2161.9738
2160.04519
2158.11658
2156.18796
2154.25935
2152.33074
2150.40213
2148.47352
2146.5449
2144.61629
2142.68768
2140.75907
2138.83046
2136.90185
2134.97323
2133.04462
2131.11601
2129.1874
2127.25879
2125.33018
2123.40156
2121.47295
2119.54434
2117.61573
2115.68712
2113.7585
2111.82989
2109.90128
2107.97267
2106.04406
2104.11545
2102.18683
2100.25822
2098.32961
2096.401
2094.47239
2092.54377
2090.61516
2088.68655
2086.75794
2084.82933
2082.90072
2080.9721
2079.04349
2077.11488
2075.18627
2073.25766
2071.32905
2069.40043
2067.47182
2065.54321
2063.6146
2061.68599
2059.75737
2057.82876
2055.90015
2053.97154
2052.04293
2050.11432
2048.1857
2046.25709
2044.32848
2042.39987
2040.47126
2038.54265
2036.61403
2034.68542
2032.75681
2030.8282
2028.89959
2026.97097
2025.04236
2023.11375
2021.18514
2019.25653
2017.32792
2015.3993
2013.47069
2011.54208
2009.61347
2007.68486
2005.75625
2003.82763
2001.89902
1999.97041
1998.0418
1996.11319
1994.18457
1992.25596
1990.32735
1988.39874
1986.47013
1984.54152
1982.6129
1980.68429
1978.75568
1976.82707
1974.89846
1972.96984
1971.04123
1969.11262
1967.18401
1965.2554
1963.32679
1961.39817
1959.46956
1957.54095
1955.61234
1953.68373
1951.75512
1949.8265
1947.89789
1945.96928
1944.04067
1942.11206
1940.18344
1938.25483
1936.32622
1934.39761
1932.469
1930.54039
1928.61177
1926.68316
1924.75455
1922.82594
1920.89733
1918.96872
1917.0401
1915.11149
1913.18288
1911.25427
1909.32566
1907.39704
1905.46843
1903.53982
1901.61121
1899.6826
1897.75399
1895.82537
1893.89676
1891.96815
1890.03954
1888.11093
1886.18232
1884.2537
1882.32509
1880.39648
1878.46787
1876.53926
1874.61064
1872.68203
1870.75342
1868.82481
1866.8962
1864.96759
1863.03897
1861.11036
1859.18175
1857.25314
1855.32453
1853.39591
1851.4673
1849.53869
1847.61008
1845.68147
1843.75286
1841.82424
1839.89563
1837.96702
1836.03841
1834.1098
1832.18119
1830.25257
1828.32396
1826.39535
1824.46674
1822.53813
1820.60951
1818.6809
1816.75229
1814.82368
1812.89507
1810.96646
1809.03784
1807.10923
1805.18062
1803.25201
1801.3234
1799.39479
1797.46617
1795.53756
1793.60895
1791.68034
1789.75173
1787.82311
1785.8945
1783.96589
1782.03728
1780.10867
1778.18006
1776.25144
1774.32283
1772.39422
1770.46561
1768.537
1766.60839
1764.67977
1762.75116
1760.82255
1758.89394
1756.96533
1755.03671
1753.1081
1751.17949
1749.25088
1747.32227
1745.39366
1743.46504
1741.53643
1739.60782
1737.67921
1735.7506
1733.82198
1731.89337
1729.96476
1728.03615
1726.10754
1724.17893
1722.25031
1720.3217
1718.39309
1716.46448
1714.53587
1712.60726
1710.67864
1708.75003
1706.82142
1704.89281
1702.9642
1701.03558
1699.10697
1697.17836
1695.24975
1693.32114
1691.39253
1689.46391
1687.5353
1685.60669
1683.67808
1681.74947
1679.82086
1677.89224
1675.96363
1674.03502
1672.10641
1670.1778
1668.24918
1666.32057
1664.39196
1662.46335
1660.53474
1658.60613
1656.67751
1654.7489
1652.82029
1650.89168
1648.96307
1647.03446
1645.10584
1643.17723
1641.24862
1639.32001
1637.3914
1635.46278
1633.53417
1631.60556
1629.67695
1627.74834
1625.81973
1623.89111
1621.9625
1620.03389
1618.10528
1616.17667
1614.24805
1612.31944
1610.39083
1608.46222
1606.53361
1604.605
1602.67638
1600.74777
1598.81916
1596.89055
1594.96194
1593.03333
1591.10471
1589.1761
1587.24749
1585.31888
1583.39027
1581.46165
1579.53304
1577.60443
1575.67582
1573.74721
1571.8186
1569.88998
1567.96137
1566.03276
1564.10415
1562.17554
1560.24693
1558.31831
1556.3897
1554.46109
1552.53248
1550.60387
1548.67525
1546.74664
1544.81803
1542.88942
1540.96081
1539.0322
1537.10358
1535.17497
1533.24636
1531.31775
1529.38914
1527.46053
1525.53191
1523.6033
1521.67469
1519.74608
1517.81747
1515.88885
1513.96024
1512.03163
1510.10302
1508.17441
1506.2458
1504.31718
1502.38857
1500.45996
1498.53135
1496.60274
1494.67412
1492.74551
1490.8169
1488.88829
1486.95968
1485.03107
1483.10245
1481.17384
1479.24523
1477.31662
1475.38801
1473.4594
1471.53078
1469.60217
1467.67356
1465.74495
1463.81634
1461.88772
1459.95911
1458.0305
1456.10189
1454.17328
1452.24467
1450.31605
1448.38744
1446.45883
1444.53022
1442.60161
1440.673
1438.74438
1436.81577
1434.88716
1432.95855
1431.02994
1429.10132
1427.17271
1425.2441
1423.31549
1421.38688
1419.45827
1417.52965
1415.60104
1413.67243
1411.74382
1409.81521
1407.8866
1405.95798
1404.02937
1402.10076
1400.17215
1398.24354
1396.31492
1394.38631
1392.4577
1390.52909
1388.60048
1386.67187
1384.74325
1382.81464
1380.88603
1378.95742
1377.02881
1375.10019
1373.17158
1371.24297
1369.31436
1367.38575
1365.45714
1363.52852
1361.59991
1359.6713
1357.74269
1355.81408
1353.88547
1351.95685
1350.02824
1348.09963
1346.17102
1344.24241
1342.31379
1340.38518
1338.45657
1336.52796
1334.59935
1332.67074
1330.74212
1328.81351
1326.8849
1324.95629
1323.02768
1321.09907
1319.17045
1317.24184
1315.31323
1313.38462
1311.45601
1309.52739
1307.59878
1305.67017
1303.74156
1301.81295
1299.88434
1297.95572
1296.02711
1294.0985
1292.16989
1290.24128
1288.31267
1286.38405
1284.45544
1282.52683
1280.59822
1278.66961
1276.74099
1274.81238
1272.88377
1270.95516
1269.02655
1267.09794
1265.16932
1263.24071
1261.3121
1259.38349
1257.45488
1255.52626
1253.59765
1251.66904
1249.74043
1247.81182
1245.88321
1243.95459
1242.02598
1240.09737
1238.16876
1236.24015
1234.31154
1232.38292
1230.45431
1228.5257
1226.59709
1224.66848
1222.73986
1220.81125
1218.88264
1216.95403
1215.02542
1213.09681
1211.16819
1209.23958
1207.31097
1205.38236
1203.45375
1201.52514
1199.59652
1197.66791
1195.7393
1193.81069
1191.88208
1189.95346
1188.02485
1186.09624
1184.16763
1182.23902
1180.31041
1178.38179
1176.45318
1174.52457
1172.59596
1170.66735
1168.73874
1166.81012
1164.88151
1162.9529
1161.02429
1159.09568
1157.16706
1155.23845
1153.30984
1151.38123
1149.45262
1147.52401
1145.59539
1143.66678
1141.73817
1139.80956
1137.88095
1135.95233
1134.02372
1132.09511
1130.1665
1128.23789
1126.30928
1124.38066
1122.45205
1120.52344
1118.59483
1116.66622
1114.73761
1112.80899
1110.88038
1108.95177
1107.02316
1105.09455
1103.16593
1101.23732
1099.30871
1097.3801
1095.45149
1093.52288
1091.59426
1089.66565
1087.73704
1085.80843
1083.87982
1081.95121
1080.02259
1078.09398
1076.16537
1074.23676
1072.30815
1070.37953
1068.45092
1066.52231
1064.5937
1062.66509
1060.73648
1058.80786
1056.87925
1054.95064
1053.02203
1051.09342
1049.16481
1047.23619
1045.30758
1043.37897
1041.45036
1039.52175
1037.59313
1035.66452
1033.73591
1031.8073
1029.87869
1027.95008
1026.02146
1024.09285
1022.16424
1020.23563
1018.30702
1016.3784
1014.44979
1012.52118
1010.59257
1008.66396
1006.73535
1004.80673
1002.87812
1000.94951
999.0209
997.09229
995.16368
993.23506
991.30645
989.37784
987.44923
985.52062
983.592
981.66339
979.73478
977.80617
975.87756
973.94895
972.02033
970.09172
968.16311
966.2345
964.30589
962.37728
960.44866
958.52005
956.59144
954.66283
952.73422
950.8056
948.87699
946.94838
945.01977
943.09116
941.16255
939.23393
937.30532
935.37671
933.4481
931.51949
929.59088
927.66226
925.73365
923.80504
921.87643
919.94782
918.0192
916.09059
914.16198
912.23337
910.30476
908.37615
906.44753
904.51892
902.59031
900.6617
898.73309
896.80447
894.87586
892.94725
891.01864
889.09003
887.16142
885.2328
883.30419
881.37558
879.44697
877.51836
875.58975
873.66113
871.73252
869.80391
867.8753
865.94669
864.01807
862.08946
860.16085
858.23224
856.30363
854.37502
852.4464
850.51779
848.58918
846.66057
844.73196
842.80335
840.87473
838.94612
837.01751
835.0889
833.16029
831.23167
829.30306
827.37445
825.44584
823.51723
821.58862
819.66
817.73139
815.80278
813.87417
811.94556
810.01695
808.08833
806.15972
804.23111
802.3025
800.37389
798.44527
796.51666
794.58805
792.65944
790.73083
788.80222
786.8736
784.94499
783.01638
781.08777
779.15916
777.23054
775.30193
773.37332
771.44471
769.5161
767.58749
765.65887
763.73026
761.80165
759.87304
757.94443
756.01582
754.0872
752.15859
750.22998
748.30137
746.37276
744.44414
742.51553
740.58692
738.65831
736.7297
734.80109
732.87247
730.94386
729.01525
727.08664
725.15803
723.22942
721.3008
719.37219
717.44358
715.51497
713.58636
711.65774
709.72913
707.80052
705.87191
703.9433
702.01469
700.08607
698.15746
696.22885
694.30024
692.37163
690.44302
688.5144
686.58579
684.65718
682.72857
680.79996
678.87134
676.94273
675.01412
673.08551
671.1569
669.22829
667.29967
665.37106
663.44245
661.51384
659.58523
657.65661
655.728
653.79939
651.87078
649.94217
648.01356
646.08494
644.15633
642.22772
640.29911
638.3705
636.44189
634.51327
632.58466
630.65605
628.72744
626.79883
624.87021
622.9416
621.01299
619.08438
617.15577
615.22716
613.29854
611.36993
609.44132
607.51271
605.5841
603.65549
601.72687
599.79826
597.86965
595.94104
594.01243
592.08381
590.1552
588.22659
586.29798
584.36937
582.44076
580.51214
578.58353
576.65492
574.72631
572.7977
570.86909
568.94047
567.01186
565.08325
563.15464
561.22603
559.29741
557.3688
555.44019
553.51158
551.58297
549.65436
547.72574
545.79713
543.86852
541.93991
540.0113
538.08268
536.15407
534.22546
532.29685
530.36824
528.43963
526.51101
524.5824
522.65379
520.72518
518.79657
516.86796
514.93934
513.01073
511.08212
509.15351
507.2249
505.29628
503.36767
501.43906
499.51045
497.58184
495.65323
493.72461
491.796
489.86739
487.93878
486.01017
484.08156
482.15294
480.22433
478.29572
476.36711
474.4385
472.50988
470.58127
468.65266
466.72405
464.79544
462.86683
460.93821
459.0096
457.08099
455.15238
453.22377
451.29516
449.36654
447.43793
445.50932
443.58071
441.6521
439.72348
437.79487
435.86626
433.93765
432.00904
430.08043
428.15181
426.2232
424.29459
422.36598
420.43737
418.50875
416.58014
414.65153
412.72292
410.79431
408.8657
406.93708
405.00847
403.07986
401.15125
399.22264
