H (A/m)	M (A/m)
3978873.5751313814	871973.6575515815
3952347.751297172	871972.5589185114
3925821.9274629634	871971.4466292651
3899296.103628754	871970.3204684606
3872770.279794545	871969.1802131935
3846244.4559603357	871968.0256347767
3819718.632126127	871966.8564842414
3793192.808291918	871965.6725225089
3766666.9844577084	871964.473490734
3740141.160623499	871963.2591385514
3713615.3367892904	871962.0291999836
3687089.512955081	871960.7834042324
3660563.689120872	871959.5214820852
3634037.8652866627	871958.2431510492
3607512.041452454	871956.9481249374
3580986.2176182447	871955.6361112816
3554460.3937840355	871954.3068111696
3527934.569949826	871952.9599190801
3501408.7461156175	871951.5951213964
3474882.922281408	871950.2121013962
3448357.098447199	871948.8105313294
3421831.27461299	871947.3900800146
3395305.450778781	871945.9504010453
3368779.6269445717	871944.4911477416
3342253.8031103625	871943.0119630286
3315727.9792761537	871941.5124801598
3289202.1554419445	871939.9923282702
3262676.3316077353	871938.451123582
3236150.507773526	871936.8884748239
3209624.6839393172	871935.3039815814
3183098.8601051085	871933.6972340235
3156573.0362708988	871932.0678126548
3130047.2124366895	871930.4152880147
3103521.3886024808	871928.739220432
3076995.564768272	871927.0391598787
3050469.7409340623	871925.314644932
3023943.917099853	871923.5652035596
2997418.0932656443	871921.7903521066
2970892.269431435	871919.9895950637
2944366.445597226	871918.1624247944
2917840.621763017	871916.308321128
2891314.797928808	871914.4267509906
2864788.9740945986	871912.5171680375
2838263.15026039	871910.5790122472
2811737.3264261805	871908.6117113597
2785211.5025919713	871906.6146730867
2758685.678757762	871904.5872955893
2732159.854923553	871902.5289598271
2705634.031089344	871900.4390308533
2679108.207255135	871898.316857321
2652582.383420926	871896.1617709714
2626056.5595867164	871893.9730861001
2599530.7357525076	871891.7500990214
2573004.911918299	871889.4920911817
2546479.088084089	871887.1983139332
2519953.26424988	871884.8680096456
2493427.440415671	871882.500396732
2466901.616581462	871880.0946725118
2440375.792747252	871877.6500126121
2413849.9689130434	871875.1655701408
2387324.1450788346	871872.6404750003
2360798.3212446254	871870.0738390959
2334272.497410416	871867.4647319044
2307746.6735762074	871864.8122147002
2281220.849741998	871862.1153165377
2254695.025907789	871859.3730391162
2228169.2020735797	871856.5843558335
2201643.378239371	871853.7482108149
2175117.5544051616	871850.8635263065
2148591.7305709524	871847.9291683545
2122065.906736743	871844.9439950493
2095540.0829025342	871841.9068229139
2069014.2590683252	871838.8164336353
2042488.4352341164	871835.6715730024
2015962.611399907	871832.470959316
1989436.7875656977	871829.2132431114
1962910.963731489	871825.897068934
1936385.1398972794	871822.5210147799
1909859.31606307	871819.0836311952
1883333.4922288612	871815.5834186906
1856807.6683946522	871812.0188318079
1830281.8445604432	871808.3882772106
1803756.020726234	871804.690111403
1777230.196892025	871800.9226395941
1750704.3730578157	871797.0841132039
1724178.5492236067	871793.1727279921
1697652.7253893975	871789.1866219346
1671126.9015551885	871785.1238727906
1644601.0777209792	871780.982495948
1618075.2538867702	871776.7604423608
1591549.430052561	871772.4555942983
1565023.6062183513	871768.0657653869
1538497.7823841427	871763.5886952183
1511971.9585499333	871759.0220479427
1485446.1347157238	871754.3634076386
1458920.3108815148	871749.6102789621
1432394.4870473053	871744.7600773659
1405868.663213096	871739.8101313266
1379342.8393788866	871734.7576752667
1352817.0155446772	871729.5998471535
1326291.1917104684	871724.3336841965
1299765.367876259	871718.9561179292
1273239.5440420494	871713.463969899
1246713.7202078402	871707.8539470577
1220187.8963736307	871702.1226365382
1193662.0725394217	871696.2665010412
1167136.2487052123	871690.2818720654
1140610.424871003	871684.1649448797
1114084.6010367938	871677.9117723829
1087558.7772025845	871671.5182582504
1061032.9533683753	871664.9801503207
1034507.129534166	871658.2930332943
1007981.3056999566	871651.452321154
981455.4818657474	871644.4532490618
954929.658031538	871637.2908651767
928403.8341973288	871629.9600212785
901878.0103631194	871622.4553635103
875352.1865289103	871614.7713224739
848826.3626947008	871606.9021025124
822300.5388604916	871598.8416707102
795774.7150262822	871590.5837450747
769248.8911920731	871582.1217813325
742723.0673578638	871573.4489609601
716197.2435236546	871564.5581756874
689671.4196894455	871555.4420129972
663145.5958552363	871546.0927414073
636619.772021027	871536.502292668
610093.9481868178	871526.6622419185
583568.1243526087	871516.5637939852
557042.3005183995	871506.1977565191
530516.4766841902	871495.55452445
503990.65284998104	871484.6240529795
477464.82901577186	871473.3958350407
450939.0051815626	871461.8588748715
424413.18134735344	871450.001660257
397887.35751314426	871437.8121326597
371361.53367893497	871425.2776564084
344835.70984472585	871412.384983637
318309.8860105166	871399.1202188744
291784.0621763074	871385.4687802722
265258.2383420982	871371.4153573719
238732.414507889	871356.9438676975
212206.5906736798	871342.0374082894
185680.76683947057	871326.6782046139
159154.9430052614	871310.8475550705
132629.1191710522	871294.5257735557
106103.29533684293	871277.6921236401
79577.47150263375	871260.324749404
53051.64766842457	871242.4006041536
26525.82383421531	871223.8953696535
6.1733682846189024e-09	871204.7833666094
-26525.823834202976	871185.03746648
-53051.64766841223	871164.6289873115
-79577.47150262143	871143.5275853543
-106103.2953368306	871121.7011364213
-132629.11917103978	871099.1156068466
-159154.94300524905	871075.7349143013
-185680.76683945823	871051.5207763225
-212206.5906736675	871026.4325409872
-238732.4145078767	871000.427010429
-265258.23834208585	870973.4582448838
-291784.06217629503	870945.4773396092
-318309.8860105043	870916.432197398
-344835.7098447135	870886.2672625629
-371361.5336789227	870854.9232445592
-397887.3575131319	870822.3367977394
-424413.18134734116	870788.4401894648
-450939.00518155034	870753.1609022184
-477464.8290157596	870716.4212437038
-503990.65284996876	870678.1378451588
-530516.476684178	870638.2212003049
-557042.3005183872	870596.5750312873
-583568.1243525964	870553.095731926
-610093.9481868056	870507.6715753519
-636619.7720210148	870460.1820285487
-663145.595855224	870410.4982072351
-689671.4196894332	870358.476404533
-716197.2435236424	870303.9649591594
-742723.0673578517	870246.7979360967
-769248.8911920608	870186.7948564768
-795774.7150262699	870123.7591238016
-822300.5388604793	870057.4762158418
-848826.3626946885	869987.7116041185
-875352.1865288978	869914.2083711451
-901878.0103631071	869836.6845103621
-928403.8341973164	869754.8297817756
-954929.6580315257	869668.3020813203
-981455.4818657349	869576.7232747009
-1007981.3056999443	869479.6742490167
-1034507.1295341535	869376.6893546813
-1061032.9533683627	869267.2525789152
-1087558.7772025722	869150.7782587481
-1114084.6010367814	869026.6176020959
-1140610.424870991	868894.0373164831
-1167136.2487052	868752.2084020985
-1193662.0725394094	868600.1896678327
-1220187.8963736186	868436.9107372186
-1246713.7202078279	868261.1352047325
-1273239.5440420373	868071.4461197942
-1299765.3678762466	867866.1966493934
-1326291.1917104558	867643.4625910118
-1352817.015544665	867400.983089331
-1379342.8393788743	867136.060772276
-1405868.6632130835	866845.4691827277
-1432394.487047293	866525.2883870143
-1458920.3108815022	866170.7007204602
-1485446.1347157112	865775.665770433
-1511971.9585499207	865332.5097025818
-1538497.78238413	864831.1731510089
-1565023.6062183394	864258.1707131291
-1591549.4300525486	863594.5261033355
-1618075.253886758	862812.1733842111
-1644601.0777209667	861866.1138795348
-1671126.9015551761	860673.6740052951
-1697652.7253893851	859035.0334132962
-1724178.5492235944	-871793.172617091
-1750704.3730578034	-871797.0843575274
-1777230.1968920128	-871800.9222434917
-1803756.0207262216	-871804.6870700098
-1830281.8445604306	-871808.3792505895
-1856807.66839464	-871812.0131342167
-1883333.4922288489	-871815.5833161898
-1909859.316063058	-871819.0809812055
-1936385.139897267	-871822.5185175989
-1962910.9637314763	-871825.8946373669
-1989436.7875656853	-871829.2108812246
-2015962.6113998946	-871832.4686597249
-2042488.435234104	-871835.6693433376
-2069014.2590683128	-871838.8142622373
-2095540.0829025218	-871841.9047084361
-2122065.906736731	-871844.9419355795
-2148591.7305709403	-871847.9271622824
-2175117.554405149	-871850.8615721358
-2201643.3782393583	-871853.7463149957
-2228169.2020735675	-871856.5825086929
-2254695.0259077763	-871859.3712392141
-2281220.8497419856	-871862.1135625709
-2307746.673576195	-871864.8105054229
-2334272.497410404	-871867.4630660063
-2360798.321244613	-871870.0722153978
-2387324.1450788225	-871872.6388980958
-2413849.9689130313	-871875.1640328786
-2440375.7927472405	-871877.6485139077
-2466901.6165814493	-871880.0932113464
-2493427.4404156585	-871882.4989720227
-2519953.2642498678	-871884.8666203985
-2546479.088084077	-871887.1969592017
-2573004.911918286	-871889.4907700267
-2599530.735752495	-871891.7488140748
-2626056.5595867042	-871893.9718328033
-2652582.3834209135	-871896.1605484582
-2679108.2072551223	-871898.315664762
-2705634.0310893315	-871900.4378674594
-2732159.854923541	-871902.5278248427
-2758685.67875775	-871904.586188377
-2785211.5025919587	-871906.6135933734
-2811737.326426168	-871908.6106578273
-2838263.150260377	-871910.5779859668
-2864788.974094586	-871912.5161665041
-2891314.7979287948	-871914.4257735077
-2917840.6217630045	-871916.3073671255
-2944366.4455972137	-871918.1614936824
-2970892.269431422	-871919.9871881955
-2997418.093265632	-871921.7894638067
-3023943.917099841	-871923.5628941344
-3050469.74093405	-871925.3137985655
-3076995.564768259	-871927.0369421176
-3103521.3886024687	-871928.7384134191
-3130047.2124366774	-871930.4131585392
-3156573.0362708867	-871932.0657543556
-3183098.8601050954	-871933.6952156436
-3209624.683939305	-871935.302003145
-3236150.5077735144	-871936.8865355314
-3262676.331607723	-871938.4492225733
-3289202.1554419324	-871939.9904648536
-3315727.979276142	-871941.5106537356
-3342253.803110351	-871943.0101705859
-3368779.6269445596	-871944.4893903595
-3395305.450778769	-871945.9486779623
-3421831.274612978	-871947.388390507
-3448357.098447187	-871948.8088771057
-3474882.922281396	-871950.210479172
-3501408.7461156053	-871951.5935305146
-3527934.5699498146	-871952.9583577082
-3554460.3937840234	-871954.3052796507
-3580986.2176182326	-871955.6346091422
-3607512.041452442	-871956.9466515414
-3634037.865286651	-871958.2417059744
-3660563.68912086	-871959.5200645645
-3687089.51295507	-871960.782013699
-3713615.3367892783	-871962.0278334412
-3740141.1606234876	-871963.257797906
-3766666.9844576963	-871964.4721754487
-3793192.8082919056	-871965.6712287179
-3819718.632126115	-871966.8552148817
-3846244.455960324	-871968.0243858228
-3872770.279794533	-871969.1789877526
-3899296.103628742	-871970.3192622442
-3925821.9274629517	-871971.4454457073
-3952347.75129716	-871972.5577697277
-3978873.5751313693	-871973.6564611082
