H (A/m)	M (A/m)
3978873.5751313814	1030545.6130274213
3952347.751297172	1030544.4111430557
3925821.9274629634	1030543.1962142421
3899296.103628754	1030541.9680911731
3872770.279794545	1030540.7265913007
3846244.4559603357	1030539.4715278571
3819718.632126127	1030538.2026979381
3793192.808291918	1030536.9198945115
3766666.9844577084	1030535.6229205019
3740141.160623499	1030534.311561448
3713615.3367892904	1030532.9855989688
3687089.512955081	1030531.6448240166
3660563.689120872	1030530.2890102532
3634037.8652866627	1030528.9179274039
3607512.041452454	1030527.5313531499
3580986.2176182447	1030526.129048691
3554460.3937840355	1030524.7107718539
3527934.569949826	1030523.2762844844
3501408.7461156175	1030521.8253352522
3474882.922281408	1030520.3576708012
3448357.098447199	1030518.8730329159
3421831.27461299	1030517.3711583726
3395305.450778781	1030515.8517787845
3368779.6269445717	1030514.3146191348
3342253.8031103625	1030512.7594031724
3315727.9792761537	1030511.185845033
3289202.1554419445	1030509.5936546745
3262676.3316077353	1030507.9825359553
3236150.507773526	1030506.3521871591
3209624.6839393172	1030504.7023003987
3183098.8601051085	1030503.0325615996
3156573.0362708988	1030501.3426503137
3130047.2124366895	1030499.6322415617
3103521.3886024808	1030497.9009979796
3076995.564768272	1030496.1485809678
3050469.7409340623	1030494.3746431002
3023943.917099853	1030492.5788298023
2997418.0932656443	1030490.7607791063
2970892.269431435	1030488.9201215446
2944366.445597226	1030487.0564799282
2917840.621763017	1030485.1694691282
2891314.797928808	1030483.2586959158
2864788.9740945986	1030481.3237590953
2838263.15026039	1030479.3642478526
2811737.3264261805	1030477.3797436843
2785211.5025919713	1030475.3698187531
2758685.678757762	1030473.3340359918
2732159.854923553	1030471.2719488973
2705634.031089344	1030469.1831012584
2679108.207255135	1030467.0670269014
2652582.383420926	1030464.9232494405
2626056.5595867164	1030462.7512819918
2599530.7357525076	1030460.5506268885
2573004.911918299	1030458.3207777628
2546479.088084089	1030456.0612099878
2519953.26424988	1030453.7713940667
2493427.440415671	1030451.4507863106
2466901.616581462	1030449.0988306989
2440375.792747252	1030446.7149585832
2413849.9689130434	1030444.2985883337
2387324.1450788346	1030441.8491249606
2360798.3212446254	1030439.3659597798
2334272.497410416	1030436.8484700007
2307746.6735762074	1030434.2960183222
2281220.849741998	1030431.7079571743
2254695.025907789	1030429.083610017
2228169.2020735797	1030426.4222979845
2201643.378239371	1030423.7233216423
2175117.5544051616	1030420.9859648086
2148591.7305709524	1030418.2094942075
2122065.906736743	1030415.3931588829
2095540.0829025342	1030412.5361897127
2069014.2590683252	1030409.6377989096
2042488.4352341164	1030406.6971867653
2015962.611399907	1030403.7135120075
1989436.7875656977	1030400.6859344083
1962910.963731489	1030397.613585717
1936385.1398972794	1030394.4955760286
1909859.31606307	1030391.3309931187
1883333.4922288612	1030388.1189017866
1856807.6683946522	1030384.858353159
1830281.8445604432	1030381.5483444849
1803756.020726234	1030378.1878769301
1777230.196892025	1030374.7759161595
1750704.3730578157	1030371.3114012029
1724178.5492236067	1030367.7932433699
1697652.7253893975	1030364.2203256259
1671126.9015551885	1030360.5915016107
1644601.0777209792	1030356.905606914
1618075.2538867702	1030353.1614096796
1591549.430052561	1030349.3576815022
1565023.6062183513	1030345.4931490293
1538497.7823841427	1030341.566504817
1511971.9585499333	1030337.5764051959
1485446.1347157238	1030333.5214702818
1458920.3108815148	1030329.4002824618
1432394.4870473053	1030325.2113847404
1405868.663213096	1030320.9532798358
1379342.8393788866	1030316.6244286203
1352817.0155446772	1030312.223248773
1326291.1917104684	1030307.7481133331
1299765.367876259	1030303.1973491098
1273239.5440420494	1030298.5692352777
1246713.7202078402	1030293.8620011763
1220187.8963736307	1030289.0738254302
1193662.0725394217	1030284.2028332673
1167136.2487052123	1030279.2470954219
1140610.424871003	1030274.2046257084
1114084.6010367938	1030269.0733792586
1087558.7772025845	1030263.8512499325
1061032.9533683753	1030258.5360678226
1034507.129534166	1030253.1256012153
1007981.3056999566	1030247.6175451854
981455.4818657474	1030242.0095290368
954929.658031538	1030236.2991056273
928403.8341973288	1030230.4837553597
901878.0103631194	1030224.5608781044
875352.1865289103	1030218.5277927758
848826.3626947008	1030212.3817341713
822300.5388604916	1030206.1198488498
795774.7150262822	1030199.739192269
769248.8911920731	1030193.2367254802
742723.0673578638	1030186.6093110379
716197.2435236546	1030179.8537089293
689671.4196894455	1030172.9665733709
663145.5958552363	1030165.944447531
636619.772021027	1030158.7837598101
610093.9481868178	1030151.4808190524
583568.1243526087	1030144.0318094054
557042.3005183995	1030136.4327855256
530516.4766841902	1030128.679666956
503990.65284998104	1030120.7682326214
477464.82901577186	1030112.69411518
450939.0051815626	1030104.4527943112
424413.18134735344	1030096.0395906621
397887.35751314426	1030087.4496590986
371361.53367893497	1030078.6779807679
344835.70984472585	1030069.7193568195
318309.8860105166	1030060.5683988015
291784.0621763074	1030051.2195226005
265258.2383420982	1030041.6669372354
238732.414507889	1030031.9046371165
212206.5906736798	1030021.9263915297
185680.76683947057	1030011.7257359504
159154.9430052614	1030001.2959585036
132629.1191710522	1029990.6300917229
106103.29533684293	1029979.7208974146
79577.47150263375	1029968.5608568712
53051.64766842457	1029957.1421554912
26525.82383421531	1029945.4566677918
6.1733682846189024e-09	1029933.4959466346
-26525.823834202976	1029921.2512029099
-53051.64766841223	1029908.7132906825
-79577.47150262143	1029895.8726894216
-106103.2953368306	1029882.7194851122
-132629.11917103978	1029869.2433503646
-159154.94300524905	1029855.433523332
-185680.76683945823	1029841.2787852531
-212206.5906736675	1029826.7674368911
-238732.4145078767	1029811.8872732058
-265258.23834208585	1029796.6255565975
-291784.06217629503	1029780.9689882462
-318309.8860105043	1029764.9036785491
-344835.7098447135	1029748.4151138455
-371361.5336789227	1029731.4881227352
-397887.3575131319	1029714.1068393624
-424413.18134734116	1029696.2546643858
-450939.00518155034	1029677.9142231619
-477464.8290157596	1029659.0673224287
-503990.65284996876	1029639.6948994555
-530516.476684178	1029619.7769757503
-557042.3005183872	1029599.2925998548
-583568.1243525964	1029578.2197894672
-610093.9481868056	1029556.5354696126
-636619.7720210148	1029534.215405221
-663145.595855224	1029511.2341294178
-689671.4196894332	1029487.5648681273
-716197.2435236424	1029463.1794505442
-742723.0673578517	1029438.0482287525
-769248.8911920608	1029412.1399759272
-795774.7150262699	1029385.4217821176
-822300.5388604793	1029357.8589502877
-848826.3626946885	1029329.4148603408
-875352.1865288978	1029300.050851978
-901878.0103631071	1029269.7260798066
-928403.8341973164	1029238.3973522439
-954929.6580315257	1029206.0189793179
-981455.4818657349	1029172.5425724462
-1007981.3056999443	1029137.9168777459
-1034507.1295341535	1029102.0875209348
-1061032.9533683627	1029064.9968204233
-1087558.7772025722	1029026.5834827254
-1114084.6010367814	1028986.7823815342
-1140610.424870991	1028945.5241890516
-1167136.2487052	1028902.7351047532
-1193662.0725394094	1028858.336466089
-1220187.8963736186	1028812.2443119406
-1246713.7202078279	1028764.3689670019
-1273239.5440420373	1028714.6145904874
-1299765.3678762466	1028662.8786078163
-1326291.1917104558	1028609.0528782483
-1352817.015544665	1028553.0160570932
-1379342.8393788743	1028494.6430582443
-1405868.6632130835	1028433.7977029684
-1432394.487047293	1028370.3333069128
-1458920.3108815022	1028304.0917050747
-1485446.1347157112	1028234.9020898828
-1511971.9585499207	1028162.5797463347
-1538497.78238413	1028086.9245909136
-1565023.6062183394	1028007.7195258411
-1591549.4300525486	1027924.7286014324
-1618075.253886758	1027837.6949039989
-1644601.0777209667	1027746.3381451503
-1671126.9015551761	1027650.3519322448
-1697652.7253893851	1027549.4005057438
-1724178.5492235944	1027443.1153641923
-1750704.3730578034	1027331.094406577
-1777230.1968920128	1027212.883595078
-1803756.0207262216	1027087.9904151652
-1830281.8445604306	1026955.8649138061
-1856807.66839464	1026815.8948277142
-1883333.4922288489	1026667.3960727993
-1909859.316063058	1026509.6014360657
-1936385.139897267	1026341.6471335429
-1962910.9637314763	1026162.5619217637
-1989436.7875656853	1025971.2262318952
-2015962.6113998946	1025766.3760690058
-2042488.435234104	1025546.5539821899
-2069014.2590683128	1025310.0739184208
-2095540.0829025218	1025054.9788271075
-2122065.906736731	1024778.9499816266
-2148591.7305709403	1024479.2540867543
-2175117.554405149	1024152.6075766968
-2201643.3782393583	1023795.0288050434
-2228169.2020735675	1023401.5880408607
-2254695.0259077763	1022966.1265855018
-2281220.8497419856	1022480.7099782306
-2307746.673576195	1021934.8406434063
-2334272.497410404	1021314.1686345479
-2360798.321244613	1020598.0417418021
-2387324.1450788225	1019754.1943876547
-2413849.9689130313	1018726.8933654373
-2440375.7927472405	1017395.0314457288
-2466901.6165814493	1015209.3536930289
-2493427.4404156585	-1030451.4507267962
-2519953.2642498678	-1030453.7679856983
-2546479.088084077	-1030456.0579676589
-2573004.911918286	-1030458.3175917452
-2599530.735752495	-1030460.5474992341
-2626056.5595867042	-1030462.748209764
-2652582.3834209135	-1030464.920231351
-2679108.2072551223	-1030467.0640622362
-2705634.0310893315	-1030469.1801888074
-2732159.854923541	-1030471.2690873708
-2758685.67875775	-1030473.3312246469
-2785211.5025919587	-1030475.367056604
-2811737.326426168	-1030477.3770289927
-2838263.150260377	-1030479.3615802871
-2864788.974094586	-1030481.3211386843
-2891314.7979287948	-1030483.2561205741
-2917840.6217630045	-1030485.1669389647
-2944366.4455972137	-1030487.0539934752
-2970892.269431422	-1030488.9176779632
-2997418.093265632	-1030490.7583769782
-3023943.917099841	-1030492.576469061
-3050469.74093405	-1030494.3723228201
-3076995.564768259	-1030496.1463003457
-3103521.3886024687	-1030497.8987562796
-3130047.2124366774	-1030499.6300380535
-3156573.0362708867	-1030501.340485962
-3183098.8601050954	-1030503.030434037
-3209624.683939305	-1030504.7002085813
-3236150.5077735144	-1030506.35013073
-3262676.331607723	-1030507.9805141609
-3289202.1554419324	-1030509.591666861
-3315727.979276142	-1030511.1838906716
-3342253.803110351	-1030512.7574815373
-3368779.6269445596	-1030514.3127297938
-3395305.450778769	-1030515.8499195765
-3421831.274612978	-1030517.3693301154
-3448357.098447187	-1030518.8712350681
-3474882.922281396	-1030520.3559024457
-3501408.7461156053	-1030521.8235964455
-3527934.5699498146	-1030523.2745744063
-3554460.3937840234	-1030524.7090899871
-3580986.2176182326	-1030526.1273916768
-3607512.041452442	-1030527.5297233664
-3634037.865286651	-1030528.916324351
-3660563.68912086	-1030530.2874296269
-3687089.51295507	-1030531.6432692652
-3713615.3367892783	-1030532.9840696363
-3740141.1606234876	-1030534.3100525236
-3766666.9844576963	-1030535.6214361921
-3793192.8082919056	-1030536.918434542
-3819718.632126115	-1030538.2012572135
-3846244.455960324	-1030539.4701105567
-3872770.279794533	-1030540.7251969895
-3899296.103628742	-1030541.966715292
-3925821.9274629517	-1030543.1948606443
-3952347.75129716	-1030544.409824921
-3978873.5751313693	-1030545.6117958402
